freq,psd_x,psd_y,psd_z,psd_xyz
0.0,3.238e+03,1.529e+02,5.917e+01,3.450e+03
1.5,1.830e+03,1.155e+02,3.029e+02,2.249e+03
3.0,8.316e+01,3.778e+01,2.761e+02,3.970e+02
4.6,1.321e+03,6.874e+01,1.838e+02,1.573e+03
6.1,4.558e+03,1.981e+02,1.521e+02,4.908e+03
7.6,6.796e+03,2.864e+02,9.966e+01,7.182e+03
9.1,9.809e+03,2.519e+02,7.785e+01,1.014e+04
10.7,1.376e+04,3.255e+02,6.936e+01,1.416e+04
12.2,1.833e+04,4.535e+02,6.865e+01,1.885e+04
13.7,2.378e+04,5.914e+02,7.395e+01,2.444e+04
15.2,3.005e+04,7.293e+02,6.671e+01,3.085e+04
16.8,3.809e+04,9.414e+02,6.157e+01,3.909e+04
18.3,4.752e+04,1.176e+03,5.915e+01,4.876e+04
19.8,5.715e+04,1.387e+03,5.724e+01,5.860e+04
21.3,6.770e+04,1.631e+03,6.382e+01,6.940e+04
22.9,7.950e+04,1.952e+03,7.463e+01,8.152e+04
24.4,9.250e+04,2.365e+03,7.721e+01,9.494e+04
25.9,1.083e+05,2.769e+03,9.093e+01,1.111e+05
27.4,1.278e+05,3.137e+03,9.995e+01,1.311e+05
28.9,1.520e+05,3.609e+03,9.754e+01,1.557e+05
30.5,1.813e+05,4.264e+03,9.855e+01,1.857e+05
32.0,2.153e+05,5.027e+03,1.024e+02,2.205e+05
33.5,2.535e+05,6.044e+03,1.208e+02,2.597e+05
35.0,3.015e+05,7.719e+03,1.512e+02,3.094e+05
36.6,3.677e+05,1.008e+04,1.816e+02,3.779e+05
38.1,4.526e+05,1.320e+04,2.162e+02,4.660e+05
39.6,5.632e+05,1.721e+04,2.797e+02,5.807e+05
41.1,7.126e+05,2.239e+04,2.453e+02,7.352e+05
42.7,9.100e+05,2.673e+04,1.242e+02,9.368e+05
44.2,1.184e+06,3.121e+04,1.647e+02,1.215e+06
45.7,1.599e+06,4.195e+04,7.748e+02,1.642e+06
47.2,2.352e+06,7.144e+04,6.237e+03,2.429e+06
48.8,3.949e+06,1.552e+05,2.465e+04,4.129e+06
50.3,9.043e+06,3.996e+05,5.416e+04,9.497e+06
51.8,1.661e+07,6.685e+05,6.581e+04,1.734e+07
53.3,1.708e+07,6.969e+05,4.727e+04,1.782e+07
54.9,1.321e+07,6.407e+05,4.208e+04,1.389e+07
56.4,9.368e+06,5.011e+05,3.001e+04,9.899e+06
57.9,6.632e+06,3.815e+05,1.861e+04,7.032e+06
59.4,4.642e+06,3.724e+05,2.970e+04,5.044e+06
60.9,3.296e+06,3.336e+05,3.710e+04,3.666e+06
62.5,2.431e+06,2.788e+05,3.882e+04,2.749e+06
64.0,1.862e+06,2.018e+05,2.600e+04,2.090e+06
65.5,1.478e+06,1.125e+05,7.157e+03,1.598e+06
67.0,1.229e+06,7.053e+04,1.548e+03,1.301e+06
68.6,1.053e+06,6.339e+04,2.157e+03,1.118e+06
70.1,8.717e+05,6.039e+04,2.946e+03,9.350e+05
71.6,6.820e+05,5.322e+04,2.700e+03,7.379e+05
73.1,5.463e+05,4.854e+04,2.963e+03,5.978e+05
74.7,4.456e+05,4.597e+04,4.252e+03,4.958e+05
76.2,3.648e+05,4.357e+04,5.441e+03,4.138e+05
77.7,2.923e+05,3.706e+04,5.154e+03,3.345e+05
79.2,2.315e+05,2.976e+04,4.165e+03,2.654e+05
80.8,1.860e+05,2.338e+04,3.286e+03,2.127e+05
82.3,1.451e+05,1.867e+04,2.882e+03,1.666e+05
83.8,1.116e+05,1.700e+04,3.827e+03,1.324e+05
85.3,8.841e+04,1.453e+04,5.136e+03,1.081e+05
86.8,7.809e+04,1.345e+04,5.104e+03,9.664e+04
88.4,8.131e+04,1.696e+04,4.464e+03,1.027e+05
89.9,9.673e+04,2.293e+04,5.387e+03,1.250e+05
91.4,1.049e+05,2.996e+04,6.234e+03,1.411e+05
92.9,1.025e+05,3.548e+04,6.794e+03,1.448e+05
94.5,9.970e+04,3.718e+04,9.108e+03,1.460e+05
96.0,1.085e+05,3.606e+04,1.207e+04,1.566e+05
97.5,1.124e+05,3.535e+04,1.279e+04,1.606e+05
99.0,1.075e+05,3.387e+04,1.076e+04,1.521e+05
100.6,9.983e+04,3.813e+04,8.321e+03,1.463e+05
102.1,8.367e+04,4.687e+04,8.439e+03,1.390e+05
103.6,7.121e+04,5.074e+04,1.141e+04,1.334e+05
105.1,6.715e+04,5.739e+04,1.532e+04,1.399e+05
106.7,6.543e+04,6.327e+04,1.650e+04,1.452e+05
108.2,5.874e+04,7.028e+04,1.342e+04,1.424e+05
109.7,6.231e+04,7.001e+04,8.324e+03,1.406e+05
111.2,7.062e+04,6.980e+04,5.406e+03,1.458e+05
112.8,7.521e+04,6.386e+04,4.716e+03,1.438e+05
114.3,8.226e+04,6.099e+04,4.091e+03,1.473e+05
115.8,1.028e+05,6.072e+04,4.031e+03,1.675e+05
117.3,1.369e+05,6.112e+04,3.947e+03,2.019e+05
118.8,1.816e+05,5.973e+04,4.020e+03,2.454e+05
120.4,2.215e+05,5.725e+04,4.315e+03,2.831e+05
121.9,2.636e+05,5.228e+04,4.793e+03,3.206e+05
123.4,2.997e+05,5.126e+04,6.124e+03,3.571e+05
124.9,3.482e+05,6.716e+04,9.509e+03,4.249e+05
126.5,3.267e+05,5.205e+04,9.102e+03,3.879e+05
128.0,3.183e+05,3.249e+04,9.634e+03,3.604e+05
129.5,3.609e+05,1.953e+04,1.201e+04,3.924e+05
131.0,4.026e+05,1.457e+04,1.054e+04,4.277e+05
132.6,3.830e+05,1.775e+04,8.141e+03,4.089e+05
134.1,2.811e+05,1.017e+04,4.342e+03,2.956e+05
135.6,2.628e+05,7.136e+03,3.138e+03,2.731e+05
137.1,2.739e+05,7.419e+03,3.654e+03,2.850e+05
138.7,2.451e+05,6.579e+03,3.763e+03,2.555e+05
140.2,2.088e+05,6.039e+03,3.735e+03,2.186e+05
141.7,1.602e+05,5.423e+03,3.600e+03,1.692e+05
143.2,1.254e+05,4.839e+03,3.691e+03,1.339e+05
144.7,1.219e+05,4.650e+03,4.390e+03,1.310e+05
146.3,1.274e+05,5.786e+03,5.270e+03,1.384e+05
147.8,1.391e+05,6.808e+03,6.352e+03,1.523e+05
149.3,1.743e+05,7.732e+03,7.640e+03,1.896e+05
150.8,2.439e+05,9.305e+03,9.428e+03,2.626e+05
152.4,4.209e+05,1.044e+04,1.176e+04,4.431e+05
153.9,7.577e+05,1.153e+04,1.674e+04,7.860e+05
155.4,9.840e+05,1.421e+04,1.998e+04,1.018e+06
156.9,1.006e+06,1.576e+04,1.996e+04,1.042e+06
158.5,1.046e+06,1.548e+04,2.149e+04,1.083e+06
160.0,1.049e+06,1.536e+04,2.207e+04,1.086e+06
161.5,1.056e+06,1.619e+04,2.227e+04,1.095e+06
163.0,1.018e+06,1.576e+04,2.200e+04,1.056e+06
164.6,9.689e+05,1.581e+04,2.163e+04,1.006e+06
166.1,9.192e+05,1.557e+04,2.126e+04,9.561e+05
167.6,9.220e+05,1.658e+04,2.229e+04,9.608e+05
169.1,9.244e+05,1.692e+04,2.195e+04,9.633e+05
170.6,9.486e+05,1.716e+04,2.168e+04,9.874e+05
172.2,9.748e+05,1.763e+04,2.153e+04,1.014e+06
173.7,9.373e+05,1.786e+04,2.033e+04,9.755e+05
175.2,8.819e+05,1.822e+04,1.900e+04,9.191e+05
176.7,9.234e+05,2.010e+04,1.975e+04,9.633e+05
178.3,1.033e+06,2.336e+04,2.214e+04,1.078e+06
179.8,1.092e+06,2.603e+04,2.293e+04,1.141e+06
181.3,1.015e+06,2.540e+04,2.040e+04,1.061e+06
182.8,9.227e+05,2.461e+04,1.769e+04,9.650e+05
184.4,8.236e+05,2.350e+04,1.596e+04,8.631e+05
185.9,7.915e+05,2.336e+04,1.568e+04,8.305e+05
187.4,7.521e+05,2.401e+04,1.445e+04,7.905e+05
188.9,7.088e+05,2.468e+04,1.298e+04,7.465e+05
190.5,6.797e+05,2.418e+04,1.200e+04,7.159e+05
192.0,6.394e+05,2.514e+04,1.089e+04,6.754e+05
193.5,7.190e+05,2.821e+04,1.191e+04,7.591e+05
195.0,8.525e+05,3.027e+04,1.418e+04,8.969e+05
196.6,8.692e+05,2.994e+04,1.483e+04,9.140e+05
198.1,8.766e+05,3.086e+04,1.568e+04,9.231e+05
199.6,8.899e+05,3.293e+04,1.594e+04,9.388e+05
