freq,psd_x,psd_y,psd_z,psd_xyz
0.0,8.690e+02,1.186e+02,4.529e+02,1.440e+03
1.5,5.165e+02,1.125e+02,2.917e+02,9.207e+02
3.1,8.740e+01,6.308e+01,4.853e+01,1.990e+02
4.6,1.342e+03,1.772e+02,5.058e+01,1.570e+03
6.1,3.960e+03,4.788e+02,4.993e+01,4.489e+03
7.7,5.496e+03,3.957e+02,4.601e+01,5.938e+03
9.2,8.059e+03,5.181e+02,4.544e+01,8.623e+03
10.7,1.171e+04,7.966e+02,4.505e+01,1.255e+04
12.3,1.645e+04,1.138e+03,4.713e+01,1.763e+04
13.8,2.313e+04,1.557e+03,5.432e+01,2.474e+04
15.3,3.141e+04,2.052e+03,5.848e+01,3.352e+04
16.9,3.765e+04,2.530e+03,6.414e+01,4.025e+04
18.4,4.013e+04,2.928e+03,8.092e+01,4.314e+04
19.9,5.039e+04,3.611e+03,1.205e+02,5.412e+04
21.5,6.506e+04,4.511e+03,1.652e+02,6.974e+04
23.0,8.548e+04,5.724e+03,2.324e+02,9.144e+04
24.5,1.035e+05,6.816e+03,3.863e+02,1.108e+05
26.1,1.241e+05,8.109e+03,5.937e+02,1.328e+05
27.6,1.481e+05,9.964e+03,9.096e+02,1.590e+05
29.1,1.866e+05,1.271e+04,1.509e+03,2.009e+05
30.7,2.428e+05,1.617e+04,2.826e+03,2.617e+05
32.2,3.044e+05,2.011e+04,4.816e+03,3.293e+05
33.7,4.005e+05,2.593e+04,8.126e+03,4.345e+05
35.3,4.985e+05,3.285e+04,1.290e+04,5.443e+05
36.8,5.820e+05,3.925e+04,1.672e+04,6.380e+05
38.3,6.343e+05,4.351e+04,1.637e+04,6.941e+05
39.9,7.520e+05,5.358e+04,2.329e+04,8.288e+05
41.4,8.539e+05,6.792e+04,4.130e+04,9.631e+05
42.9,1.015e+06,9.060e+04,7.521e+04,1.181e+06
44.5,9.920e+05,9.900e+04,1.086e+05,1.200e+06
46.0,8.430e+05,9.145e+04,1.328e+05,1.067e+06
47.5,6.580e+05,8.606e+04,1.573e+05,9.013e+05
49.1,5.339e+05,9.664e+04,1.959e+05,8.264e+05
50.6,4.888e+05,1.221e+05,2.806e+05,8.915e+05
52.1,4.587e+05,1.635e+05,5.145e+05,1.137e+06
53.7,4.055e+05,2.242e+05,1.063e+06,1.693e+06
55.2,2.391e+05,1.780e+05,1.354e+06,1.772e+06
56.7,1.115e+05,9.045e+04,1.197e+06,1.399e+06
58.3,7.691e+04,5.904e+04,9.687e+05,1.105e+06
59.8,6.729e+04,4.222e+04,7.576e+05,8.671e+05
61.3,7.037e+04,2.589e+04,7.283e+05,8.246e+05
62.9,1.136e+05,2.542e+04,8.142e+05,9.532e+05
64.4,1.754e+05,3.734e+04,8.143e+05,1.027e+06
66.0,2.677e+05,6.163e+04,8.367e+05,1.166e+06
67.5,4.469e+05,1.107e+05,9.695e+05,1.527e+06
69.0,7.468e+05,1.629e+05,1.155e+06,2.065e+06
70.6,1.270e+06,2.117e+05,1.491e+06,2.972e+06
72.1,1.771e+06,2.614e+05,1.746e+06,3.779e+06
73.6,1.761e+06,2.631e+05,1.568e+06,3.591e+06
75.2,1.454e+06,2.301e+05,1.194e+06,2.878e+06
76.7,1.160e+06,1.826e+05,8.841e+05,2.227e+06
78.2,9.254e+05,1.278e+05,6.645e+05,1.718e+06
79.8,7.276e+05,8.594e+04,5.003e+05,1.314e+06
81.3,5.383e+05,5.495e+04,3.634e+05,9.566e+05
82.8,3.813e+05,3.535e+04,2.570e+05,6.737e+05
84.4,2.645e+05,2.721e+04,1.783e+05,4.700e+05
85.9,1.991e+05,2.771e+04,1.287e+05,3.555e+05
87.4,1.950e+05,3.293e+04,1.127e+05,3.406e+05
89.0,2.320e+05,4.395e+04,1.209e+05,3.969e+05
90.5,2.993e+05,5.548e+04,1.405e+05,4.953e+05
92.0,3.633e+05,6.283e+04,1.598e+05,5.859e+05
93.6,3.693e+05,6.480e+04,1.622e+05,5.963e+05
95.1,3.460e+05,6.082e+04,1.503e+05,5.570e+05
96.6,3.252e+05,5.282e+04,1.344e+05,5.124e+05
98.2,2.888e+05,4.020e+04,1.127e+05,4.417e+05
99.7,2.686e+05,3.211e+04,9.267e+04,3.934e+05
101.2,2.855e+05,4.221e+04,7.533e+04,4.031e+05
102.8,3.759e+05,7.430e+04,6.187e+04,5.121e+05
104.3,5.052e+05,1.009e+05,5.227e+04,6.584e+05
105.8,5.838e+05,1.186e+05,5.214e+04,7.545e+05
107.4,5.780e+05,1.310e+05,6.235e+04,7.714e+05
108.9,4.832e+05,1.182e+05,7.393e+04,6.753e+05
110.4,3.698e+05,1.022e+05,8.361e+04,5.556e+05
112.0,2.874e+05,9.075e+04,8.126e+04,4.594e+05
113.5,2.572e+05,9.102e+04,6.855e+04,4.168e+05
115.0,2.709e+05,1.035e+05,5.682e+04,4.312e+05
116.6,3.018e+05,1.192e+05,4.623e+04,4.672e+05
118.1,3.196e+05,1.286e+05,3.833e+04,4.865e+05
119.6,3.436e+05,1.340e+05,3.406e+04,5.117e+05
121.2,3.903e+05,1.408e+05,3.335e+04,5.645e+05
122.7,4.235e+05,1.564e+05,3.574e+04,6.156e+05
124.2,4.361e+05,1.756e+05,4.059e+04,6.524e+05
125.8,4.189e+05,1.590e+05,3.674e+04,6.146e+05
127.3,3.791e+05,1.640e+05,3.413e+04,5.772e+05
128.8,3.657e+05,1.662e+05,3.303e+04,5.649e+05
130.4,3.519e+05,1.482e+05,3.099e+04,5.311e+05
131.9,2.808e+05,1.302e+05,2.576e+04,4.368e+05
133.4,1.036e+05,7.045e+04,9.615e+03,1.837e+05
135.0,2.642e+04,9.717e+04,5.216e+03,1.288e+05
136.5,4.871e+04,3.253e+05,1.970e+04,3.937e+05
138.0,3.095e+04,1.271e+05,6.849e+03,1.649e+05
139.6,2.811e+04,4.302e+04,1.914e+03,7.304e+04
141.1,2.577e+04,4.298e+04,2.025e+03,7.077e+04
142.6,2.226e+04,3.945e+04,2.086e+03,6.379e+04
144.2,2.259e+04,4.267e+04,1.998e+03,6.725e+04
145.7,2.202e+04,5.089e+04,1.906e+03,7.482e+04
147.2,2.349e+04,6.756e+04,2.115e+03,9.316e+04
148.8,2.680e+04,1.012e+05,2.361e+03,1.303e+05
150.3,2.594e+04,1.216e+05,2.279e+03,1.498e+05
151.8,2.321e+04,1.144e+05,2.065e+03,1.396e+05
153.4,2.081e+04,1.037e+05,1.793e+03,1.263e+05
154.9,1.987e+04,9.035e+04,1.893e+03,1.121e+05
156.4,1.879e+04,7.731e+04,2.005e+03,9.811e+04
158.0,1.787e+04,6.212e+04,1.812e+03,8.181e+04
159.5,1.400e+04,4.719e+04,1.357e+03,6.255e+04
161.0,7.388e+03,3.075e+04,1.388e+03,3.953e+04
162.6,3.898e+03,2.298e+04,1.801e+03,2.868e+04
164.1,4.191e+03,1.981e+04,2.101e+03,2.610e+04
165.6,7.152e+03,1.717e+04,2.145e+03,2.646e+04
167.2,1.106e+04,1.882e+04,2.044e+03,3.192e+04
168.7,1.282e+04,1.959e+04,1.720e+03,3.413e+04
170.2,1.283e+04,2.029e+04,1.333e+03,3.446e+04
171.8,1.168e+04,1.987e+04,1.009e+03,3.256e+04
173.3,1.052e+04,1.792e+04,8.727e+02,2.931e+04
174.8,1.116e+04,1.544e+04,7.897e+02,2.738e+04
176.4,1.269e+04,1.633e+04,6.711e+02,2.969e+04
177.9,1.635e+04,1.583e+04,5.660e+02,3.274e+04
179.4,1.902e+04,1.731e+04,4.595e+02,3.678e+04
181.0,1.967e+04,1.694e+04,3.838e+02,3.699e+04
182.5,1.909e+04,1.807e+04,3.605e+02,3.752e+04
184.0,1.888e+04,1.987e+04,3.605e+02,3.911e+04
185.6,1.914e+04,2.144e+04,4.238e+02,4.101e+04
187.1,2.009e+04,2.439e+04,4.814e+02,4.496e+04
188.7,2.196e+04,2.786e+04,5.250e+02,5.034e+04
190.2,2.258e+04,3.050e+04,5.269e+02,5.361e+04
191.7,2.209e+04,3.599e+04,4.986e+02,5.858e+04
193.3,2.417e+04,4.460e+04,5.123e+02,6.928e+04
194.8,3.097e+04,5.308e+04,6.521e+02,8.470e+04
196.3,3.375e+04,5.861e+04,8.667e+02,9.323e+04
197.9,3.828e+04,6.699e+04,1.094e+03,1.064e+05
199.4,4.333e+04,7.276e+04,1.166e+03,1.173e+05
