freq,psd_x,psd_y,psd_z,psd_xyz
0.0,8.615e+02,5.932e+01,3.198e+01,9.528e+02
1.5,5.102e+02,6.249e+01,6.873e+01,6.414e+02
3.1,4.184e+01,3.529e+01,5.327e+01,1.304e+02
4.6,3.564e+02,3.614e+01,3.844e+01,4.309e+02
6.1,1.118e+03,4.344e+01,4.334e+01,1.205e+03
7.7,1.775e+03,3.962e+01,5.081e+01,1.865e+03
9.2,2.667e+03,4.021e+01,4.699e+01,2.754e+03
10.7,3.576e+03,4.165e+01,5.080e+01,3.669e+03
12.3,4.803e+03,3.882e+01,5.631e+01,4.898e+03
13.8,6.376e+03,3.595e+01,5.945e+01,6.471e+03
15.3,8.060e+03,3.679e+01,5.996e+01,8.157e+03
16.9,1.023e+04,4.033e+01,6.159e+01,1.033e+04
18.4,1.308e+04,4.995e+01,7.594e+01,1.321e+04
19.9,1.671e+04,5.916e+01,7.906e+01,1.684e+04
21.5,2.121e+04,7.220e+01,9.127e+01,2.138e+04
23.0,2.628e+04,9.406e+01,1.030e+02,2.647e+04
24.5,3.100e+04,9.226e+01,1.119e+02,3.121e+04
26.1,3.715e+04,9.322e+01,1.593e+02,3.740e+04
27.6,4.640e+04,1.096e+02,2.474e+02,4.676e+04
29.1,5.735e+04,1.820e+02,3.188e+02,5.785e+04
30.7,7.009e+04,3.271e+02,3.498e+02,7.077e+04
32.2,8.680e+04,4.790e+02,4.114e+02,8.769e+04
33.7,1.085e+05,6.543e+02,4.904e+02,1.096e+05
35.2,1.356e+05,8.144e+02,5.756e+02,1.369e+05
36.8,1.704e+05,9.958e+02,7.574e+02,1.722e+05
38.3,2.171e+05,1.035e+03,1.389e+03,2.195e+05
39.8,2.793e+05,8.336e+02,2.768e+03,2.829e+05
41.4,3.857e+05,6.321e+02,5.241e+03,3.915e+05
42.9,5.308e+05,2.847e+03,8.738e+03,5.424e+05
44.4,7.008e+05,1.406e+04,1.177e+04,7.267e+05
46.0,9.889e+05,4.199e+04,8.848e+03,1.040e+06
47.5,1.401e+06,7.075e+04,3.180e+03,1.475e+06
49.0,1.839e+06,7.222e+04,2.175e+03,1.914e+06
50.6,2.554e+06,5.857e+04,7.417e+03,2.620e+06
52.1,3.440e+06,4.579e+04,1.680e+04,3.502e+06
53.6,3.439e+06,3.329e+04,2.117e+04,3.493e+06
55.2,2.788e+06,2.331e+04,2.074e+04,2.832e+06
56.7,2.089e+06,1.836e+04,1.843e+04,2.126e+06
58.2,1.444e+06,1.655e+04,1.547e+04,1.476e+06
59.8,1.038e+06,1.757e+04,1.173e+04,1.067e+06
61.3,7.905e+05,1.768e+04,9.333e+03,8.175e+05
62.8,6.306e+05,1.649e+04,8.820e+03,6.559e+05
64.4,5.244e+05,1.702e+04,8.555e+03,5.499e+05
65.9,4.367e+05,1.624e+04,7.665e+03,4.606e+05
67.4,3.500e+05,1.496e+04,7.592e+03,3.725e+05
69.0,2.944e+05,1.449e+04,7.876e+03,3.168e+05
70.5,2.592e+05,1.416e+04,7.580e+03,2.809e+05
72.0,2.294e+05,1.403e+04,7.753e+03,2.512e+05
73.6,2.076e+05,1.482e+04,8.698e+03,2.311e+05
75.1,1.864e+05,1.641e+04,1.008e+04,2.129e+05
76.6,1.638e+05,1.665e+04,9.502e+03,1.900e+05
78.2,1.472e+05,1.643e+04,8.011e+03,1.716e+05
79.7,1.349e+05,1.735e+04,6.946e+03,1.592e+05
81.2,1.176e+05,1.819e+04,6.721e+03,1.425e+05
82.8,9.087e+04,1.701e+04,6.479e+03,1.144e+05
84.3,6.902e+04,1.623e+04,6.849e+03,9.210e+04
85.8,7.366e+04,1.825e+04,8.731e+03,1.006e+05
87.4,1.137e+05,2.162e+04,1.169e+04,1.470e+05
88.9,1.609e+05,2.347e+04,1.395e+04,1.983e+05
90.4,1.920e+05,2.307e+04,1.413e+04,2.292e+05
92.0,2.134e+05,2.336e+04,1.332e+04,2.501e+05
93.5,2.307e+05,2.798e+04,1.373e+04,2.724e+05
95.0,2.406e+05,3.428e+04,1.425e+04,2.891e+05
96.5,2.554e+05,3.936e+04,1.423e+04,3.090e+05
98.1,2.707e+05,4.516e+04,1.523e+04,3.311e+05
99.6,2.803e+05,5.182e+04,1.738e+04,3.495e+05
101.1,2.869e+05,5.971e+04,2.170e+04,3.683e+05
102.7,2.968e+05,7.304e+04,3.108e+04,4.009e+05
104.2,2.883e+05,8.378e+04,3.754e+04,4.096e+05
105.7,2.732e+05,8.850e+04,3.731e+04,3.991e+05
107.3,2.930e+05,1.013e+05,4.317e+04,4.375e+05
108.8,3.184e+05,1.182e+05,5.093e+04,4.875e+05
110.3,3.491e+05,1.401e+05,6.024e+04,5.494e+05
111.9,3.659e+05,1.564e+05,6.581e+04,5.881e+05
113.4,3.804e+05,1.626e+05,6.780e+04,6.107e+05
114.9,4.391e+05,1.902e+05,7.664e+04,7.059e+05
116.5,4.929e+05,2.184e+05,8.616e+04,7.975e+05
118.0,5.394e+05,2.473e+05,9.715e+04,8.838e+05
119.5,5.787e+05,2.793e+05,1.113e+05,9.693e+05
121.1,6.178e+05,3.112e+05,1.258e+05,1.055e+06
122.6,6.560e+05,3.461e+05,1.446e+05,1.147e+06
124.1,7.325e+05,4.100e+05,1.694e+05,1.312e+06
125.7,8.295e+05,4.775e+05,1.909e+05,1.498e+06
127.2,8.723e+05,5.132e+05,2.111e+05,1.597e+06
128.7,9.022e+05,5.116e+05,2.399e+05,1.654e+06
130.3,9.626e+05,5.077e+05,2.746e+05,1.745e+06
131.8,9.389e+05,4.799e+05,2.838e+05,1.703e+06
133.3,4.400e+05,2.424e+05,1.292e+05,8.116e+05
134.9,9.887e+04,7.787e+04,1.736e+04,1.941e+05
136.4,7.676e+04,5.711e+04,1.256e+04,1.464e+05
137.9,8.051e+04,5.559e+04,1.375e+04,1.498e+05
139.5,8.934e+04,5.961e+04,1.576e+04,1.647e+05
141.0,9.947e+04,6.479e+04,1.831e+04,1.826e+05
142.5,1.101e+05,6.946e+04,2.082e+04,2.004e+05
144.1,1.277e+05,7.751e+04,2.506e+04,2.303e+05
145.6,1.455e+05,8.476e+04,2.889e+04,2.591e+05
147.1,1.537e+05,8.542e+04,3.149e+04,2.706e+05
148.7,1.537e+05,8.269e+04,3.528e+04,2.716e+05
150.2,1.580e+05,8.113e+04,4.219e+04,2.813e+05
151.7,1.509e+05,7.053e+04,4.756e+04,2.690e+05
153.3,1.509e+05,6.348e+04,5.464e+04,2.690e+05
154.8,1.572e+05,6.092e+04,6.078e+04,2.789e+05
156.3,1.593e+05,5.773e+04,6.443e+04,2.815e+05
157.9,1.672e+05,5.708e+04,6.726e+04,2.915e+05
159.4,1.780e+05,5.720e+04,6.807e+04,3.033e+05
160.9,1.990e+05,6.218e+04,7.122e+04,3.324e+05
162.4,2.108e+05,6.782e+04,7.345e+04,3.520e+05
164.0,2.012e+05,6.607e+04,6.967e+04,3.370e+05
165.5,1.770e+05,5.846e+04,6.106e+04,2.965e+05
167.0,1.554e+05,5.113e+04,5.255e+04,2.591e+05
168.6,1.400e+05,4.775e+04,4.798e+04,2.357e+05
170.1,1.270e+05,4.488e+04,4.347e+04,2.154e+05
171.6,1.084e+05,3.969e+04,3.716e+04,1.853e+05
173.2,9.365e+04,3.511e+04,3.190e+04,1.607e+05
174.7,8.182e+04,3.127e+04,2.768e+04,1.408e+05
176.2,7.004e+04,2.761e+04,2.368e+04,1.213e+05
177.8,6.025e+04,2.470e+04,2.073e+04,1.057e+05
179.3,5.055e+04,2.156e+04,1.767e+04,8.979e+04
180.8,4.360e+04,1.920e+04,1.588e+04,7.867e+04
182.4,3.903e+04,1.779e+04,1.514e+04,7.196e+04
183.9,3.511e+04,1.626e+04,1.432e+04,6.570e+04
185.4,3.095e+04,1.458e+04,1.369e+04,5.922e+04
187.0,2.743e+04,1.321e+04,1.308e+04,5.372e+04
188.5,2.533e+04,1.229e+04,1.241e+04,5.002e+04
190.0,2.401e+04,1.166e+04,1.200e+04,4.767e+04
191.6,2.226e+04,1.070e+04,1.134e+04,4.430e+04
193.1,2.093e+04,1.014e+04,1.078e+04,4.185e+04
194.6,1.962e+04,9.398e+03,1.009e+04,3.911e+04
196.2,1.869e+04,8.411e+03,9.189e+03,3.629e+04
197.7,1.717e+04,7.344e+03,8.209e+03,3.272e+04
199.2,1.807e+04,7.994e+03,9.185e+03,3.525e+04
