freq,psd_x,psd_y,psd_z,psd_xyz
0.0,6.088e+02,6.284e+01,5.262e+02,1.198e+03
1.5,3.566e+02,5.436e+01,3.871e+02,7.980e+02
3.1,6.990e+01,2.917e+01,7.712e+01,1.762e+02
4.6,1.308e+03,8.523e+01,5.251e+01,1.446e+03
6.1,3.966e+03,1.984e+02,5.586e+01,4.220e+03
7.7,5.677e+03,9.619e+01,5.867e+01,5.832e+03
9.2,8.346e+03,1.044e+02,6.844e+01,8.519e+03
10.8,1.170e+04,1.604e+02,7.728e+01,1.194e+04
12.3,1.576e+04,2.202e+02,7.537e+01,1.605e+04
13.8,2.169e+04,2.954e+02,8.421e+01,2.207e+04
15.4,2.873e+04,3.637e+02,9.206e+01,2.919e+04
16.9,3.259e+04,4.743e+02,9.119e+01,3.315e+04
18.4,3.549e+04,6.312e+02,7.586e+01,3.620e+04
20.0,3.946e+04,8.034e+02,6.735e+01,4.033e+04
21.5,4.510e+04,1.041e+03,5.795e+01,4.620e+04
23.1,5.766e+04,1.273e+03,6.346e+01,5.900e+04
24.6,7.062e+04,1.521e+03,6.963e+01,7.221e+04
26.1,8.618e+04,1.911e+03,8.830e+01,8.817e+04
27.7,1.019e+05,2.426e+03,1.530e+02,1.045e+05
29.2,1.129e+05,3.058e+03,3.121e+02,1.163e+05
30.7,1.152e+05,3.784e+03,5.824e+02,1.195e+05
32.3,9.567e+04,4.779e+03,1.075e+03,1.015e+05
33.8,7.278e+04,5.958e+03,1.875e+03,8.062e+04
35.3,8.667e+04,7.327e+03,2.867e+03,9.687e+04
36.9,1.087e+05,9.157e+03,4.030e+03,1.219e+05
38.4,1.318e+05,1.149e+04,4.280e+03,1.476e+05
40.0,1.510e+05,1.461e+04,5.393e+03,1.710e+05
41.5,1.698e+05,1.893e+04,1.095e+04,1.997e+05
43.0,2.015e+05,2.594e+04,2.298e+04,2.504e+05
44.6,2.609e+05,3.792e+04,4.738e+04,3.462e+05
46.1,3.574e+05,5.914e+04,1.127e+05,5.293e+05
47.6,4.721e+05,8.978e+04,2.595e+05,8.213e+05
49.2,5.292e+05,1.169e+05,5.018e+05,1.148e+06
50.7,4.862e+05,1.337e+05,9.337e+05,1.554e+06
52.2,3.253e+05,1.208e+05,1.399e+06,1.846e+06
53.8,1.575e+05,7.563e+04,1.507e+06,1.740e+06
55.3,7.517e+04,3.391e+04,1.259e+06,1.368e+06
56.9,6.697e+04,1.568e+04,1.031e+06,1.114e+06
58.4,9.348e+04,1.533e+04,8.744e+05,9.832e+05
59.9,1.214e+05,1.578e+04,7.359e+05,8.731e+05
61.5,1.867e+05,1.866e+04,7.737e+05,9.791e+05
63.0,3.241e+05,3.519e+04,9.354e+05,1.295e+06
64.5,5.036e+05,6.403e+04,1.048e+06,1.616e+06
66.1,8.280e+05,1.101e+05,1.303e+06,2.241e+06
67.6,1.332e+06,1.416e+05,1.701e+06,3.175e+06
69.2,1.997e+06,1.323e+05,2.189e+06,4.319e+06
70.7,2.407e+06,1.072e+05,2.381e+06,4.896e+06
72.2,2.248e+06,9.246e+04,2.066e+06,4.406e+06
73.8,1.709e+06,7.918e+04,1.476e+06,3.264e+06
75.3,1.253e+06,6.473e+04,1.032e+06,2.350e+06
76.8,9.485e+05,5.044e+04,7.596e+05,1.759e+06
78.4,7.101e+05,3.576e+04,5.666e+05,1.313e+06
79.9,5.309e+05,2.162e+04,4.197e+05,9.722e+05
81.4,3.987e+05,1.202e+04,3.098e+05,7.205e+05
83.0,3.048e+05,6.772e+03,2.283e+05,5.398e+05
84.5,2.539e+05,5.005e+03,1.711e+05,4.300e+05
86.1,2.547e+05,5.890e+03,1.375e+05,3.981e+05
87.6,3.296e+05,1.032e+04,1.343e+05,4.742e+05
89.1,4.576e+05,1.806e+04,1.613e+05,6.370e+05
90.7,5.085e+05,2.274e+04,1.802e+05,7.115e+05
92.2,5.089e+05,2.449e+04,1.857e+05,7.191e+05
93.7,5.063e+05,2.279e+04,1.855e+05,7.146e+05
95.3,4.737e+05,2.016e+04,1.776e+05,6.715e+05
96.8,4.309e+05,1.737e+04,1.621e+05,6.104e+05
98.4,4.210e+05,1.644e+04,1.394e+05,5.768e+05
99.9,4.820e+05,1.894e+04,1.169e+05,6.179e+05
101.4,5.832e+05,2.288e+04,9.258e+04,6.987e+05
103.0,6.671e+05,2.620e+04,6.920e+04,7.625e+05
104.5,7.054e+05,2.757e+04,5.221e+04,7.852e+05
106.0,6.894e+05,2.826e+04,4.348e+04,7.612e+05
107.6,6.282e+05,3.352e+04,4.683e+04,7.086e+05
109.1,5.560e+05,3.843e+04,5.797e+04,6.524e+05
110.6,4.825e+05,4.115e+04,6.643e+04,5.901e+05
112.2,4.233e+05,3.691e+04,6.659e+04,5.268e+05
113.7,3.878e+05,3.579e+04,6.218e+04,4.857e+05
115.3,3.770e+05,3.877e+04,5.724e+04,4.730e+05
116.8,3.748e+05,4.452e+04,5.217e+04,4.715e+05
118.3,3.688e+05,4.922e+04,4.604e+04,4.641e+05
119.9,3.694e+05,5.154e+04,4.163e+04,4.626e+05
121.4,3.848e+05,5.029e+04,3.936e+04,4.744e+05
122.9,4.022e+05,4.801e+04,4.183e+04,4.921e+05
124.5,4.172e+05,4.642e+04,4.409e+04,5.077e+05
126.0,4.277e+05,3.922e+04,4.334e+04,5.102e+05
127.6,4.320e+05,3.627e+04,4.520e+04,5.135e+05
129.1,4.298e+05,3.493e+04,4.679e+04,5.115e+05
130.6,4.106e+05,3.429e+04,4.601e+04,4.909e+05
132.2,3.209e+05,2.886e+04,3.656e+04,3.864e+05
133.7,9.794e+04,2.804e+04,1.583e+04,1.418e+05
135.2,9.859e+03,6.213e+04,1.432e+04,8.631e+04
136.8,6.621e+03,1.914e+04,3.689e+03,2.945e+04
138.3,6.514e+03,7.551e+03,8.562e+02,1.492e+04
139.8,1.038e+04,1.101e+04,1.138e+03,2.253e+04
141.4,1.059e+04,1.192e+04,1.465e+03,2.397e+04
142.9,6.633e+03,1.312e+04,9.497e+02,2.070e+04
144.5,5.061e+03,1.409e+04,6.837e+02,1.983e+04
146.0,4.869e+03,1.517e+04,4.906e+02,2.053e+04
147.5,5.461e+03,1.535e+04,3.826e+02,2.120e+04
149.1,7.662e+03,1.558e+04,4.693e+02,2.371e+04
150.6,9.217e+03,1.535e+04,4.774e+02,2.505e+04
152.1,8.753e+03,1.346e+04,4.941e+02,2.271e+04
153.7,7.832e+03,1.126e+04,5.607e+02,1.965e+04
155.2,6.438e+03,8.392e+03,8.203e+02,1.565e+04
156.7,5.542e+03,6.668e+03,1.376e+03,1.359e+04
158.3,8.662e+03,6.054e+03,1.873e+03,1.659e+04
159.8,1.172e+04,7.758e+03,2.000e+03,2.148e+04
161.4,1.323e+04,1.061e+04,2.045e+03,2.588e+04
162.9,1.347e+04,1.212e+04,1.984e+03,2.758e+04
164.4,1.398e+04,1.337e+04,2.080e+03,2.944e+04
166.0,1.467e+04,1.463e+04,2.247e+03,3.154e+04
167.5,1.433e+04,1.666e+04,2.300e+03,3.330e+04
169.0,1.317e+04,1.714e+04,2.070e+03,3.238e+04
170.6,1.265e+04,1.652e+04,1.839e+03,3.101e+04
172.1,1.223e+04,1.541e+04,1.539e+03,2.918e+04
173.7,1.089e+04,1.353e+04,1.288e+03,2.571e+04
175.2,9.614e+03,1.184e+04,1.135e+03,2.259e+04
176.7,1.004e+04,1.093e+04,9.027e+02,2.187e+04
178.3,1.186e+04,9.871e+03,6.914e+02,2.242e+04
179.8,1.336e+04,9.179e+03,4.848e+02,2.303e+04
181.3,1.272e+04,9.092e+03,3.041e+02,2.211e+04
182.9,1.215e+04,9.466e+03,2.752e+02,2.189e+04
184.4,1.187e+04,9.797e+03,3.146e+02,2.198e+04
185.9,1.135e+04,1.051e+04,3.900e+02,2.226e+04
187.5,1.158e+04,1.129e+04,4.236e+02,2.329e+04
189.0,1.268e+04,1.182e+04,3.762e+02,2.487e+04
190.6,1.470e+04,1.212e+04,3.361e+02,2.715e+04
192.1,1.630e+04,1.260e+04,3.024e+02,2.920e+04
193.6,1.925e+04,1.395e+04,2.952e+02,3.350e+04
195.2,2.282e+04,1.627e+04,2.794e+02,3.937e+04
196.7,2.286e+04,1.891e+04,2.749e+02,4.204e+04
198.2,2.216e+04,2.220e+04,4.000e+02,4.476e+04
199.8,2.079e+04,2.518e+04,5.618e+02,4.654e+04
