freq,psd_x,psd_y,psd_z,psd_xyz
0.0,5.226e+03,1.114e+02,2.342e+02,5.571e+03
1.5,3.128e+03,1.157e+02,6.323e+02,3.876e+03
3.0,8.342e+01,8.943e+01,5.706e+02,7.434e+02
4.5,1.129e+03,1.002e+02,6.710e+02,1.900e+03
6.0,4.739e+03,9.978e+01,7.759e+02,5.615e+03
7.5,6.850e+03,1.259e+02,7.317e+02,7.707e+03
9.0,9.477e+03,1.239e+02,7.546e+02,1.036e+04
10.5,1.352e+04,9.564e+01,6.549e+02,1.427e+04
12.0,1.834e+04,1.057e+02,7.540e+02,1.920e+04
13.5,2.405e+04,1.140e+02,7.502e+02,2.491e+04
14.9,3.068e+04,1.137e+02,8.100e+02,3.161e+04
16.4,3.833e+04,1.248e+02,8.427e+02,3.930e+04
17.9,4.727e+04,1.357e+02,9.435e+02,4.835e+04
19.4,5.775e+04,1.286e+02,9.166e+02,5.880e+04
20.9,6.976e+04,1.357e+02,8.756e+02,7.077e+04
22.4,8.390e+04,1.532e+02,9.419e+02,8.500e+04
23.9,9.934e+04,1.721e+02,9.609e+02,1.005e+05
25.4,1.162e+05,1.932e+02,9.286e+02,1.173e+05
26.9,1.372e+05,2.362e+02,9.025e+02,1.383e+05
28.4,1.633e+05,3.153e+02,9.415e+02,1.646e+05
29.9,1.952e+05,4.623e+02,1.114e+03,1.968e+05
31.4,2.339e+05,6.016e+02,1.313e+03,2.358e+05
32.9,2.802e+05,7.905e+02,1.496e+03,2.824e+05
34.4,3.357e+05,9.445e+02,1.711e+03,3.383e+05
35.9,4.046e+05,1.096e+03,2.208e+03,4.079e+05
37.4,4.871e+05,1.464e+03,2.730e+03,4.913e+05
38.9,5.910e+05,2.183e+03,3.174e+03,5.963e+05
40.4,7.276e+05,3.272e+03,3.968e+03,7.348e+05
41.8,8.891e+05,5.781e+03,4.258e+03,8.992e+05
43.3,1.090e+06,1.074e+04,3.802e+03,1.104e+06
44.8,1.387e+06,2.032e+04,3.143e+03,1.410e+06
46.3,1.839e+06,4.243e+04,2.293e+03,1.884e+06
47.8,2.556e+06,8.802e+04,2.426e+03,2.646e+06
49.3,3.733e+06,1.079e+05,8.951e+03,3.849e+06
50.8,6.073e+06,9.051e+04,2.980e+04,6.194e+06
52.3,1.279e+07,9.899e+04,8.896e+04,1.298e+07
53.8,2.534e+07,1.771e+05,1.810e+05,2.570e+07
55.3,2.972e+07,2.308e+05,2.051e+05,3.015e+07
56.8,2.445e+07,2.001e+05,1.657e+05,2.482e+07
58.3,1.798e+07,1.693e+05,1.272e+05,1.828e+07
59.8,1.310e+07,1.281e+05,1.408e+05,1.337e+07
61.3,9.958e+06,8.555e+04,1.552e+05,1.020e+07
62.8,7.723e+06,5.739e+04,1.515e+05,7.932e+06
64.3,6.042e+06,4.171e+04,1.398e+05,6.224e+06
65.8,4.701e+06,3.539e+04,1.193e+05,4.855e+06
67.3,3.776e+06,3.294e+04,9.214e+04,3.901e+06
68.7,3.102e+06,3.340e+04,6.052e+04,3.196e+06
70.2,2.580e+06,3.163e+04,3.766e+04,2.649e+06
71.7,2.184e+06,2.752e+04,2.808e+04,2.239e+06
73.2,1.882e+06,2.320e+04,3.044e+04,1.936e+06
74.7,1.591e+06,2.052e+04,3.849e+04,1.650e+06
76.2,1.344e+06,2.128e+04,4.287e+04,1.409e+06
77.7,1.141e+06,2.343e+04,3.779e+04,1.202e+06
79.2,9.730e+05,2.624e+04,2.896e+04,1.028e+06
80.7,8.416e+05,3.018e+04,2.100e+04,8.928e+05
82.2,7.211e+05,3.394e+04,1.408e+04,7.692e+05
83.7,6.179e+05,3.664e+04,9.473e+03,6.641e+05
85.2,5.526e+05,3.789e+04,7.759e+03,5.983e+05
86.7,4.771e+05,3.801e+04,6.990e+03,5.221e+05
88.2,4.050e+05,3.727e+04,6.938e+03,4.492e+05
89.7,3.810e+05,3.796e+04,7.582e+03,4.266e+05
91.2,4.802e+05,3.219e+04,8.099e+03,5.205e+05
92.7,6.966e+05,2.018e+04,9.558e+03,7.263e+05
94.2,8.893e+05,1.676e+04,1.300e+04,9.191e+05
95.6,9.842e+05,2.344e+04,1.645e+04,1.024e+06
97.1,1.006e+06,3.398e+04,1.928e+04,1.059e+06
98.6,9.758e+05,4.382e+04,2.022e+04,1.040e+06
100.1,9.551e+05,5.260e+04,2.055e+04,1.028e+06
101.6,9.196e+05,6.071e+04,2.206e+04,1.002e+06
103.1,8.936e+05,7.047e+04,2.450e+04,9.885e+05
104.6,8.759e+05,8.231e+04,2.745e+04,9.856e+05
106.1,8.844e+05,1.026e+05,3.229e+04,1.019e+06
107.6,9.215e+05,1.346e+05,3.911e+04,1.095e+06
109.1,9.874e+05,1.867e+05,5.300e+04,1.227e+06
110.6,1.062e+06,2.652e+05,7.351e+04,1.400e+06
112.1,1.029e+06,3.251e+05,8.026e+04,1.435e+06
113.6,1.007e+06,3.840e+05,7.921e+04,1.471e+06
115.1,1.062e+06,4.775e+05,8.105e+04,1.621e+06
116.6,1.130e+06,6.052e+05,8.050e+04,1.816e+06
118.1,1.214e+06,7.502e+05,8.483e+04,2.049e+06
119.6,1.361e+06,9.323e+05,1.049e+05,2.398e+06
121.1,1.436e+06,1.041e+06,1.417e+05,2.618e+06
122.5,1.315e+06,1.003e+06,1.801e+05,2.499e+06
124.0,1.139e+06,8.214e+05,2.190e+05,2.179e+06
125.5,1.015e+06,5.562e+05,2.421e+05,1.813e+06
127.0,9.649e+05,4.031e+05,2.458e+05,1.614e+06
128.5,9.959e+05,3.406e+05,2.577e+05,1.594e+06
130.0,1.010e+06,3.609e+05,2.618e+05,1.633e+06
131.5,9.099e+05,3.290e+05,2.551e+05,1.494e+06
133.0,4.677e+05,1.608e+05,1.407e+05,7.693e+05
134.5,6.383e+04,4.071e+04,1.817e+04,1.227e+05
136.0,8.892e+04,1.385e+05,4.101e+04,2.684e+05
137.5,5.497e+04,7.036e+04,2.508e+04,1.504e+05
139.0,1.950e+04,8.684e+03,6.943e+03,3.513e+04
140.5,1.825e+04,5.678e+03,7.112e+03,3.104e+04
142.0,1.876e+04,3.913e+03,8.019e+03,3.069e+04
143.5,2.142e+04,2.866e+03,9.498e+03,3.378e+04
145.0,2.679e+04,2.561e+03,1.179e+04,4.114e+04
146.5,3.293e+04,2.764e+03,1.450e+04,5.019e+04
148.0,3.576e+04,2.767e+03,1.610e+04,5.462e+04
149.4,3.778e+04,2.829e+03,1.838e+04,5.899e+04
150.9,4.236e+04,2.807e+03,2.045e+04,6.562e+04
152.4,4.803e+04,2.555e+03,2.465e+04,7.524e+04
153.9,5.836e+04,2.799e+03,3.183e+04,9.298e+04
155.4,7.255e+04,3.341e+03,4.010e+04,1.160e+05
156.9,8.316e+04,3.385e+03,4.555e+04,1.321e+05
158.4,1.066e+05,5.310e+03,5.754e+04,1.695e+05
159.9,1.477e+05,1.315e+04,8.243e+04,2.433e+05
161.4,1.872e+05,2.745e+04,1.120e+05,3.267e+05
162.9,1.988e+05,3.810e+04,1.256e+05,3.625e+05
164.4,1.851e+05,3.786e+04,1.218e+05,3.448e+05
165.9,1.503e+05,2.993e+04,1.058e+05,2.860e+05
167.4,1.328e+05,2.388e+04,1.006e+05,2.573e+05
168.9,1.283e+05,2.022e+04,9.995e+04,2.485e+05
170.4,1.236e+05,1.827e+04,9.719e+04,2.391e+05
171.9,1.141e+05,1.531e+04,8.843e+04,2.178e+05
173.4,1.089e+05,1.268e+04,8.316e+04,2.047e+05
174.9,9.843e+04,9.023e+03,7.425e+04,1.817e+05
176.3,9.925e+04,8.230e+03,7.375e+04,1.812e+05
177.8,1.054e+05,9.197e+03,7.951e+04,1.941e+05
179.3,1.096e+05,1.135e+04,8.228e+04,2.033e+05
180.8,1.200e+05,1.397e+04,9.194e+04,2.259e+05
182.3,1.185e+05,1.522e+04,9.234e+04,2.261e+05
183.8,1.129e+05,1.722e+04,9.077e+04,2.209e+05
185.3,1.111e+05,1.986e+04,9.168e+04,2.226e+05
186.8,1.068e+05,2.215e+04,9.000e+04,2.189e+05
188.3,1.017e+05,2.382e+04,8.753e+04,2.131e+05
189.8,9.656e+04,2.505e+04,8.507e+04,2.067e+05
191.3,8.818e+04,2.512e+04,7.928e+04,1.926e+05
192.8,8.641e+04,2.809e+04,8.086e+04,1.954e+05
194.3,9.714e+04,3.656e+04,9.465e+04,2.284e+05
195.8,9.962e+04,4.107e+04,9.827e+04,2.390e+05
197.3,9.260e+04,4.022e+04,9.316e+04,2.260e+05
198.8,8.516e+04,3.853e+04,8.607e+04,2.098e+05
